VAMAS Surface Chemical Analysis Standard Data Transfer Format 1988 May 4
Not Specified
Not Specified
Not Specified
Not Specified
2
Casa Info Follows CasaXPS Version 2.3.22PR1.0
0
NORM
REGULAR
0
1
Exp Variable
d
0
0
0
0
1
Fe2p
zero line
2010
2010
2019
15
36
18
0
10
Casa Info Follows
0
0
0
0
none
Group: none
Analyzer Lens: none
Analyzer Slit: none
Scan Mode: none
XPS
0
Al
1486.61
0
0
0
56.5
180
FAT
20.0
1
4.3058
0
0
0
0
0
Fe
2p
-1
kinetic energy
eV
736.6
0.049999999999954525
2
counts
d
Transmission
d
pulse counting
0.2
3
0
0
0
0
2
ESCAPE DEPTH TYPE
d
0
MFP Exponent
d
0
2242
1.0
1.0
1
1
1.0
1
1.0
1
1.0
1
1.0
1
1.0
1
1.0
1
1.0
1
1.0
1
1.0
1
1.0
1
1.0
1
1.0
1
1.0
1
1.0
1
1.0
1
1.0
1
1.0
1
1.0
1
1.0
1
1.0
1
1.0
1
1.0
1
1.0
1
1.0
1
1.0
1
1.0
1
1.0
1
1.0
1
1.0
1
1.0
1
1.0
1
1.0
1
1.0
1
1.0
1
1.0
1
1.0
1
1.0
1
1.0
1
1.0
1
1.0
1
1.0
1
1.0
1
1.0
1
1.0
1
1.0
1
1.0
1
1.0
1
1.0
1
1.0
1
1.0
1
1.0
1
1.0
1
1.0
1
1.0
1
1.0
1
1.0
1
1.0
1
1.0
1
1.0
1
1.0
1
1.0
1
1.0
1
1.0
1
1.0
1
1.0
1
1.0
1
1.0
1
1.0
1
1.0
1
1.0
1
1.0
1
1.0
1
1.0
1
1.0
1
1.0
1
1.0
1
1.0
1
1.0
1
1.0
1
1.0
1
1.0
1
1.0
1
1.0
1
1.0
1
1.0
1
1.0
1
1.0
1
1.0
1
1.0
1
1.0
1
1.0
1
1.0
1
1.0
1
1.0
1
1.0
1
1.0
1
1.0
1
1.0
1
1.0
1
1.0
1
1.0
1
1.0
1
1.0
1
1.0
1
1.0
1
1.0
1
1.0
1
1.0
1
1.0
1
1.0
1
1.0
1
1.0
1
1.0
1
1.0
1
1.0
1
1.0
1
1.0
1
1.0
1
1.0
1
1.0
1
1.0
1
1.0
1
1.0
1
1.0
1
1.0
1
1.0
1
1.0
1
1.0
1
1.0
1
1.0
1
1.0
1
1.0
1
1.0
1
1.0
1
1.0
1
1.0
1
1.0
1
1.0
1
1.0
1
1.0
1
1.0
1
1.0
1
1.0
1
1.0
1
1.0
1
1.0
1
1.0
1
1.0
1
1.0
1
1.0
1
1.0
1
1.0
1
1.0
1
1.0
1
1.0
1
1.0
1
1.0
1
1.0
1
1.0
1
1.0
1
1.0
1
1.0
1
1.0
1
1.0
1
1.0
1
1.0
1
1.0
1
1.0
1
1.0
1
1.0
1
1.0
1
1.0
1
1.0
1
1.0
1
1.0
1
1.0
1
1.0
1
1.0
1
1.0
1
1.0
1
1.0
1
1.0
1
1.0
1
1.0
1
1.0
1
1.0
1
1.0
1
1.0
1
1.0
1
1.0
1
1.0
1
1.0
1
1.0
1
1.0
1
1.0
1
1.0
1
1.0
1
1.0
1
1.0
1
1.0
1
1.0
1
1.0
1
1.0
1
1.0
1
1.0
1
1.0
1
1.0
1
1.0
1
1.0
1
1.0
1
1.0
1
1.0
1
1.0
1
1.0
1
1.0
1
1.0
1
1.0
1
1.0
1
1.0
1
1.0
1
1.0
1
1.0
1
1.0
1
1.0
1
1.0
1
1.0
1
1.0
1
1.0
1
1.0
1
1.0
1
1.0
1
1.0
1
1.0
1
1.0
1
1.0
1
1.0
1
1.0
1
1.0
1
1.0
1
1.0
1
1.0
1
1.0
1
1.0
1
1.0
1
1.0
1
1.0
1
1.0
1
1.0
1
1.0
1
1.0
1
1.0
1
1.0
1
1.0
1
1.0
1
1.0
1
1.0
1
1.0
1
1.0
1
1.0
1
1.0
1
1.0
1
1.0
1
1.0
1
1.0
1
1.0
1
1.0
1
1.0
1
1.0
1
1.0
1
1.0
1
1.0
1
1.0
1
1.0
1
1.0
1
1.0
1
1.0
1
1.0
1
1.0
1
1.0
1
1.0
1
1.0
1
1.0
1
1.0
1
1.0
1
1.0
1
1.0
1
1.0
1
1.0
1
1.0
1
1.0
1
1.0
1
1.0
1
1.0
1
1.0
1
1.0
1
1.0
1
1.0
1
1.0
1
1.0
1
1.0
1
1.0
1
1.0
1
1.0
1
1.0
1
1.0
1
1.0
1
1.0
1
1.0
1
1.0
1
1.0
1
1.0
1
1.0
1
1.0
1
1.0
1
1.0
1
1.0
1
1.0
1
1.0
1
1.0
1
1.0
1
1.0
1
1.0
1
1.0
1
1.0
1
1.0
1
1.0
1
1.0
1
1.0
1
1.0
1
1.0
1
1.0
1
1.0
1
1.0
1
1.0
1
1.0
1
1.0
1
1.0
1
1.0
1
1.0
1
1.0
1
1.0
1
1.0
1
1.0
1
1.0
1
1.0
1
1.0
1
1.0
1
1.0
1
1.0
1
1.0
1
1.0
1
1.0
1
1.0
1
1.0
1
1.0
1
1.0
1
1.0
1
1.0
1
1.0
1
1.0
1
1.0
1
1.0
1
1.0
1
1.0
1
1.0
1
1.0
1
1.0
1
1.0
1
1.0
1
1.0
1
1.0
1
1.0
1
1.0
1
1.0
1
1.0
1
1.0
1
1.0
1
1.0
1
1.0
1
1.0
1
1.0
1
1.0
1
1.0
1
1.0
1
1.0
1
1.0
1
1.0
1
1.0
1
1.0
1
1.0
1
1.0
1
1.0
1
1.0
1
1.0
1
1.0
1
1.0
1
1.0
1
1.0
1
1.0
1
1.0
1
1.0
1
1.0
1
1.0
1
1.0
1
1.0
1
1.0
1
1.0
1
1.0
1
1.0
1
1.0
1
1.0
1
1.0
1
1.0
1
1.0
1
1.0
1
1.0
1
1.0
1
1.0
1
1.0
1
1.0
1
1.0
1
1.0
1
1.0
1
1.0
1
1.0
1
1.0
1
1.0
1
1.0
1
1.0
1
1.0
1
1.0
1
1.0
1
1.0
1
1.0
1
1.0
1
1.0
1
1.0
1
1.0
1
1.0
1
1.0
1
1.0
1
1.0
1
1.0
1
1.0
1
1.0
1
1.0
1
1.0
1
1.0
1
1.0
1
1.0
1
1.0
1
1.0
1
1.0
1
1.0
1
1.0
1
1.0
1
1.0
1
1.0
1
1.0
1
1.0
1
1.0
1
1.0
1
1.0
1
1.0
1
1.0
1
1.0
1
1.0
1
1.0
1
1.0
1
1.0
1
1.0
1
1.0
1
1.0
1
1.0
1
1.0
1
1.0
1
1.0
1
1.0
1
1.0
1
1.0
1
1.0
1
1.0
1
1.0
1
1.0
1
1.0
1
1.0
1
1.0
1
1.0
1
1.0
1
1.0
1
1.0
1
1.0
1
1.0
1
1.0
1
1.0
1
1.0
1
1.0
1
1.0
1
1.0
1
1.0
1
1.0
1
1.0
1
1.0
1
1.0
1
1.0
1
1.0
1
1.0
1
1.0
1
1.0
1
1.0
1
1.0
1
1.0
1
1.0
1
1.0
1
1.0
1
1.0
1
1.0
1
1.0
1
1.0
1
1.0
1
1.0
1
1.0
1
1.0
1
1.0
1
1.0
1
1.0
1
1.0
1
1.0
1
1.0
1
1.0
1
1.0
1
1.0
1
1.0
1
1.0
1
1.0
1
1.0
1
1.0
1
1.0
1
1.0
1
1.0
1
1.0
1
1.0
1
1.0
1
1.0
1
1.0
1
1.0
1
1.0
1
1.0
1
1.0
1
1.0
1
1.0
1
1.0
1
1.0
1
1.0
1
1.0
1
1.0
1
1.0
1
1.0
1
1.0
1
1.0
1
1.0
1
1.0
1
1.0
1
1.0
1
1.0
1
1.0
1
1.0
1
1.0
1
1.0
1
1.0
1
1.0
1
1.0
1
1.0
1
1.0
1
1.0
1
1.0
1
1.0
1
1.0
1
1.0
1
1.0
1
1.0
1
1.0
1
1.0
1
1.0
1
1.0
1
1.0
1
1.0
1
1.0
1
1.0
1
1.0
1
1.0
1
1.0
1
1.0
1
1.0
1
1.0
1
1.0
1
1.0
1
1.0
1
1.0
1
1.0
1
1.0
1
1.0
1
1.0
1
1.0
1
1.0
1
1.0
1
1.0
1
1.0
1
1.0
1
1.0
1
1.0
1
1.0
1
1.0
1
1.0
1
1.0
1
1.0
1
1.0
1
1.0
1
1.0
1
1.0
1
1.0
1
1.0
1
1.0
1
1.0
1
1.0
1
1.0
1
1.0
1
1.0
1
1.0
1
1.0
1
1.0
1
1.0
1
1.0
1
1.0
1
1.0
1
1.0
1
1.0
1
1.0
1
1.0
1
1.0
1
1.0
1
1.0
1
1.0
1
1.0
1
1.0
1
1.0
1
1.0
1
1.0
1
1.0
1
1.0
1
1.0
1
1.0
1
1.0
1
1.0
1
1.0
1
1.0
1
1.0
1
1.0
1
1.0
1
1.0
1
1.0
1
1.0
1
1.0
1
1.0
1
1.0
1
1.0
1
1.0
1
1.0
1
1.0
1
1.0
1
1.0
1
1.0
1
1.0
1
1.0
1
1.0
1
1.0
1
1.0
1
1.0
1
1.0
1
1.0
1
1.0
1
1.0
1
1.0
1
1.0
1
1.0
1
1.0
1
1.0
1
1.0
1
1.0
1
1.0
1
1.0
1
1.0
1
1.0
1
1.0
1
1.0
1
1.0
1
1.0
1
1.0
1
1.0
1
1.0
1
1.0
1
1.0
1
1.0
1
1.0
1
1.0
1
1.0
1
1.0
1
1.0
1
1.0
1
1.0
1
1.0
1
1.0
1
1.0
1
1.0
1
1.0
1
1.0
1
1.0
1
1.0
1
1.0
1
1.0
1
1.0
1
1.0
1
1.0
1
1.0
1
1.0
1
1.0
1
1.0
1
1.0
1
1.0
1
1.0
1
1.0
1
1.0
1
1.0
1
1.0
1
1.0
1
1.0
1
1.0
1
1.0
1
1.0
1
1.0
1
1.0
1
1.0
1
1.0
1
1.0
1
1.0
1
1.0
1
1.0
1
1.0
1
1.0
1
1.0
1
1.0
1
1.0
1
1.0
1
1.0
1
1.0
1
1.0
1
1.0
1
1.0
1
1.0
1
1.0
1
1.0
1
1.0
1
1.0
1
1.0
1
1.0
1
1.0
1
1.0
1
1.0
1
1.0
1
1.0
1
1.0
1
1.0
1
1.0
1
1.0
1
1.0
1
1.0
1
1.0
1
1.0
1
1.0
1
1.0
1
1.0
1
1.0
1
1.0
1
1.0
1
1.0
1
1.0
1
1.0
1
1.0
1
1.0
1
1.0
1
1.0
1
1.0
1
1.0
1
1.0
1
1.0
1
1.0
1
1.0
1
1.0
1
1.0
1
1.0
1
1.0
1
1.0
1
1.0
1
1.0
1
1.0
1
1.0
1
1.0
1
1.0
1
1.0
1
1.0
1
1.0
1
1.0
1
1.0
1
1.0
1
1.0
1
1.0
1
1.0
1
1.0
1
1.0
1
1.0
1
1.0
1
1.0
1
1.0
1
1.0
1
1.0
1
1.0
1
1.0
1
1.0
1
1.0
1
1.0
1
1.0
1
1.0
1
1.0
1
1.0
1
1.0
1
1.0
1
1.0
1
1.0
1
1.0
1
1.0
1
1.0
1
1.0
1
1.0
1
1.0
1
1.0
1
1.0
1
1.0
1
1.0
1
1.0
1
1.0
1
1.0
1
1.0
1
1.0
1
1.0
1
1.0
1
1.0
1
1.0
1
1.0
1
1.0
1
1.0
1
1.0
1
1.0
1
1.0
1
1.0
1
1.0
1
1.0
1
1.0
1
1.0
1
1.0
1
1.0
1
1.0
1
1.0
1
1.0
1
1.0
1
1.0
1
1.0
1
1.0
1
1.0
1
1.0
1
1.0
1
1.0
1
1.0
1
1.0
1
1.0
1
1.0
1
1.0
1
1.0
1
1.0
1
1.0
1
1.0
1
1.0
1
1.0
1
1.0
1
1.0
1
1.0
1
1.0
1
1.0
1
1.0
1
1.0
1
1.0
1
1.0
1
1.0
1
1.0
1
1.0
1
1.0
1
1.0
1
1.0
1
1.0
1
1.0
1
1.0
1
1.0
1
1.0
1
1.0
1
1.0
1
1.0
1
1.0
1
1.0
1
1.0
1
1.0
1
1.0
1
1.0
1
1.0
1
1.0
1
1.0
1
1.0
1
1.0
1
1.0
1
1.0
1
1.0
1
1.0
1
1.0
1
1.0
1
1.0
1
1.0
1
1.0
1
1.0
1
1.0
1
1.0
1
1.0
1
1.0
1
1.0
1
1.0
1
1.0
1
1.0
1
1.0
1
1.0
1
1.0
1
1.0
1
1.0
1
1.0
1
1.0
1
1.0
1
1.0
1
1.0
1
1.0
1
1.0
1
1.0
1
1.0
1
1.0
1
1.0
1
1.0
1
1.0
1
1.0
1
1.0
1
1.0
1
1.0
1
1.0
1
1.0
1
1.0
1
1.0
1
1.0
1
1.0
1
1.0
1
1.0
1
1.0
1
1.0
1
1.0
1
1.0
1
1.0
1
1.0
1
1.0
1
1.0
1
1.0
1
1.0
1
1.0
1
1.0
1
1.0
1
1.0
1
1.0
1
1.0
1
1.0
1
1.0
1
1.0
1
1.0
1
1.0
1
1.0
1
1.0
1
1.0
1
1.0
1
1.0
1
1.0
1
1.0
1
1.0
1
1.0
1
1.0
1
1.0
1
1.0
1
1.0
1
1.0
1
1.0
1
1.0
1
1.0
1
1.0
1
1.0
1
1.0
1
1.0
1
1.0
1
1.0
1
1.0
1
1.0
1
1.0
1
1.0
1
1.0
1
1.0
1
1.0
1
1.0
1
1.0
1
1.0
1
1.0
1
1.0
1
1.0
1
1.0
1
1.0
1
1.0
1
1.0
1
1.0
1
1.0
1
1.0
1
1.0
1
1.0
1
1.0
1
1.0
1
1.0
1
1.0
1
1.0
1
1.0
1
1.0
1
1.0
1
1.0
1
1.0
1
1.0
1
1.0
1
1.0
1
1.0
1
1.0
1
1.0
1
1.0
1
1.0
1
1.0
1
1.0
1
1.0
1
1.0
1
1.0
1
1.0
1
1.0
1
1.0
1
1.0
1
1.0
1
1.0
1
1.0
1
1.0
1
1.0
1
1.0
1
1.0
1
1.0
1
1.0
1
1.0
1
1.0
1
1.0
1
1.0
1
1.0
1
1.0
1
1.0
1
1.0
1
1.0
1
1.0
1
1.0
1
1.0
1
1.0
1
1.0
1
1.0
1
1.0
1
1.0
1
1.0
1
1.0
1
1.0
1
1.0
1
1.0
1
1.0
1
1.0
1
1.0
1
1.0
1
1.0
1
1.0
1
1.0
1
1.0
1
1.0
1
1.0
1
1.0
1
1.0
1
1.0
1
1.0
1
1.0
1
1.0
1
1.0
1
1.0
1
1.0
1
1.0
1
1.0
1
1.0
1
1.0
1
end of experiment