VAMAS Surface Chemical Analysis Standard Data Transfer Format 1988 May 4
Not Specified
Not Specified
Not Specified
Not Specified
5
Casa Info Follows CasaXPS Version 2.3.24PR1.0
0
Created by SpecsLab Prodigy, Version 4.73.2-r95032 
SourceAnalyserAngle: Not Specified
CasaRowLabel:Fe metal
NORM
REGULAR
0
1
Exp Variable
d
0
0
0
0
1
Fe2p
Fe metal
2021
5
7
18
14
57
0
17
Casa Info Follows
0
0
0
0
File = E:/OwnCloud/XPS lab/EX494_S778_Fe metal.sle
Group = RT in UHV, #Treatments: , #Temp:RT , #Pressure:UHV, #Atmosphere: , #Comments:  
First of group = 0
Spectrum ID = 54
Analyzer lens = AngleResolvedMode22:1.5kV
Analyzer slit = 4:7x20c\C:mesh
Scan mode = FixedAnalyzerTransmission
Kinetic energy start = 716.61
PCA Coefs = 124235, -421.933, -624.314, 
c:\users\mark\downloads\ex494_s778_fe metal.vms
c:\users\mark\downloads\ex494_fe metal.vms
C:\Users\pielsticker\Lukas\MPI-CEC\Projects\deepxps\xpsdeeplearning\data\references\NiCoFe\EX491-495 Fe, Ni, Co oxide references.vms
XPS
2
Al
1486.61
0
0
0
54.5
180
FAT
20
1
4.1408
0
0
0
0
0
Fe
2p
-1
kinetic energy
eV
716.61
0.1
2
counts
d
Transmission
d
pulse counting
0.1
3
0
0
0
0
2
ESCAPE DEPTH TYPE
d
1
MFP Exponent
d
0
1702
323.951
16500.6
3.06292
3.24048
3792.71
3.24048
3825.12
3.24025
3824.11
3.24002
3802.93
3.23979
3810.09
3.23957
3796.89
3.23934
3793.94
3.23911
3806.25
3.23889
3798.68
3.23866
3784.24
3.23843
3790.72
3.2382
3773.41
3.23798
3778.05
3.23775
3782.55
3.23752
3754.88
3.2373
3731.12
3.23707
3752.55
3.23684
3748.22
3.23662
3724.94
3.23639
3727.19
3.23616
3732.2
3.23594
3707.35
3.23571
3696.67
3.23549
3680.79
3.23526
3684.17
3.23503
3682.64
3.23481
3684.61
3.23458
3651.5
3.23435
3658.03
3.23413
3651.65
3.2339
3662.5
3.23368
3650.47
3.23345
3653.65
3.23322
3645.15
3.233
3643.65
3.23277
3626.84
3.23255
3627.24
3.23232
3631.2
3.2321
3615.61
3.23187
3625.24
3.23164
3617.95
3.23142
3604.73
3.23119
3634.87
3.23097
3610.51
3.23074
3612.08
3.23052
3613.92
3.23029
3615.72
3.23007
3612.1
3.22984
3619.35
3.22962
3626.72
3.22939
3619.04
3.22917
3601.93
3.22894
3600.58
3.22872
3594.47
3.22849
3608.95
3.22827
3617.96
3.22804
3597.74
3.22782
3612.52
3.22759
3593.23
3.22737
3602.37
3.22714
3577.84
3.22692
3613.58
3.22669
3612.19
3.22647
3606.54
3.22624
3583.46
3.22602
3580.16
3.2258
3592.89
3.22557
3601.76
3.22535
3596.43
3.22512
3582.21
3.2249
3589.6
3.22467
3599.35
3.22445
3597.88
3.22423
3587.36
3.224
3574.78
3.22378
3589.84
3.22355
3572.13
3.22333
3552.43
3.22311
3583.47
3.22288
3590.53
3.22266
3570.14
3.22244
3561.11
3.22221
3564.05
3.22199
3578.48
3.22176
3571.72
3.22154
3557.13
3.22132
3565.59
3.22109
3553.51
3.22087
3573.97
3.22065
3571.24
3.22042
3566.46
3.2202
3564.75
3.21998
3588.27
3.21976
3562.36
3.21953
3556.94
3.21931
3558.14
3.21909
3570.94
3.21886
3574.09
3.21864
3580.21
3.21842
3604.87
3.21819
3582.01
3.21797
3574.11
3.21775
3567.41
3.21753
3578.11
3.2173
3573.98
3.21708
3559.09
3.21686
3590.76
3.21664
3567.15
3.21641
3591.48
3.21619
3599.31
3.21597
3586.65
3.21575
3582.13
3.21553
3573.61
3.2153
3596.12
3.21508
3589.81
3.21486
3604.85
3.21464
3623.94
3.21441
3625.58
3.21419
3624.35
3.21397
3626.26
3.21375
3625.22
3.21353
3643.62
3.21331
3653.98
3.21308
3627.25
3.21286
3668.8
3.21264
3663.28
3.21242
3647.17
3.2122
3657.66
3.21198
3656.22
3.21175
3662.21
3.21153
3670.53
3.21131
3652.28
3.21109
3682.59
3.21087
3698.91
3.21065
3678.65
3.21043
3694.62
3.21021
3704.6
3.20998
3699.28
3.20976
3698.57
3.20954
3710.91
3.20932
3710.45
3.2091
3699.05
3.20888
3712.87
3.20866
3711.76
3.20844
3710.78
3.20822
3708.38
3.208
3732.62
3.20778
3739.93
3.20756
3746.05
3.20734
3734.77
3.20711
3745.55
3.20689
3743.44
3.20667
3771.28
3.20645
3773.3
3.20623
3759.73
3.20601
3774.56
3.20579
3768.36
3.20557
3804.71
3.20535
3800.9
3.20513
3765.39
3.20491
3766.59
3.20469
3787.1
3.20447
3792.91
3.20425
3788.85
3.20403
3800.84
3.20381
3824.79
3.20359
3813.88
3.20337
3816.63
3.20315
3816.47
3.20293
3849.3
3.20271
3836.82
3.2025
3842.11
3.20228
3835.02
3.20206
3846.95
3.20184
3852.21
3.20162
3860.94
3.2014
3850.09
3.20118
3864.54
3.20096
3865.24
3.20074
3866.95
3.20052
3865.87
3.2003
3871.44
3.20008
3888.96
3.19986
3886.7
3.19965
3894.27
3.19943
3906.62
3.19921
3892.07
3.19899
3886.6
3.19877
3895.67
3.19855
3910.98
3.19833
3909.51
3.19811
3936.19
3.1979
3935.54
3.19768
3920.02
3.19746
3917.49
3.19724
3929.82
3.19702
3934.23
3.1968
3947.11
3.19658
3924.42
3.19637
3948.43
3.19615
3974.03
3.19593
3951.56
3.19571
3965.99
3.19549
3989.68
3.19528
4009.6
3.19506
3978.4
3.19484
3985.73
3.19462
4002.89
3.1944
4035.32
3.19419
4012.88
3.19397
4012.23
3.19375
4002.63
3.19353
4008.94
3.19332
4037.21
3.1931
4024.34
3.19288
4050.23
3.19266
4054.46
3.19245
4048.19
3.19223
4045.22
3.19201
4063.29
3.19179
4079.84
3.19158
4066.22
3.19136
4074.77
3.19114
4093.66
3.19092
4092.94
3.19071
4093.18
3.19049
4079.45
3.19027
4078.02
3.19006
4107.26
3.18984
4127.34
3.18962
4119.21
3.18941
4116.72
3.18919
4127.49
3.18897
4117.45
3.18876
4123.88
3.18854
4129.63
3.18832
4157.65
3.18811
4156.88
3.18789
4158.29
3.18767
4166.65
3.18746
4165.03
3.18724
4171.34
3.18702
4171.03
3.18681
4181.13
3.18659
4179.44
3.18637
4175.73
3.18616
4198.78
3.18594
4207
3.18573
4202.86
3.18551
4215.46
3.18529
4204.64
3.18508
4203.19
3.18486
4216.95
3.18465
4233.02
3.18443
4238.17
3.18421
4267.44
3.184
4255.11
3.18378
4235.57
3.18357
4241.62
3.18335
4235.03
3.18314
4236.82
3.18292
4249.15
3.1827
4245.98
3.18249
4261.51
3.18227
4257.4
3.18206
4241.79
3.18184
4267.98
3.18163
4266.62
3.18141
4276.69
3.1812
4286.17
3.18098
4264.88
3.18077
4266.1
3.18055
4275.46
3.18034
4302.69
3.18012
4271.59
3.17991
4269.71
3.17969
4285.23
3.17948
4278.45
3.17926
4278.93
3.17905
4286.06
3.17883
4323.27
3.17862
4300.94
3.1784
4292.53
3.17819
4283.55
3.17798
4287.1
3.17776
4307.57
3.17755
4310.12
3.17733
4292.32
3.17712
4302.3
3.1769
4302.23
3.17669
4289.51
3.17647
4288.72
3.17626
4302.4
3.17605
4301.96
3.17583
4298.55
3.17562
4287.43
3.1754
4316.32
3.17519
4302.15
3.17498
4317.63
3.17476
4309.67
3.17455
4325.25
3.17433
4312.49
3.17412
4317.15
3.17391
4317.83
3.17369
4317.29
3.17348
4318.41
3.17327
4357.72
3.17305
4321.36
3.17284
4320.68
3.17263
4320.33
3.17241
4346.87
3.1722
4352.63
3.17199
4348.27
3.17177
4359.11
3.17156
4371.5
3.17135
4366.52
3.17113
4372.7
3.17092
4366.16
3.17071
4377.58
3.17049
4407.29
3.17028
4392.37
3.17007
4395.53
3.16986
4394.2
3.16964
4407.29
3.16943
4399.41
3.16922
4437.06
3.169
4435.76
3.16879
4443.12
3.16858
4424.3
3.16837
4437.07
3.16815
4431.35
3.16794
4430.81
3.16773
4451.31
3.16752
4438.76
3.1673
4461.58
3.16709
4450.41
3.16688
4455.86
3.16667
4470.61
3.16645
4477.93
3.16624
4494.59
3.16603
4485.56
3.16582
4486.9
3.16561
4477.18
3.16539
4494.76
3.16518
4529.9
3.16497
4532.89
3.16476
4514.64
3.16455
4515.27
3.16434
4542.46
3.16412
4552.99
3.16391
4542.74
3.1637
4527.35
3.16349
4526.54
3.16328
4560.16
3.16307
4556.72
3.16285
4566.21
3.16264
4580.26
3.16243
4577.86
3.16222
4582.1
3.16201
4586.88
3.1618
4605.65
3.16159
4612.31
3.16137
4610.87
3.16116
4612.24
3.16095
4626.91
3.16074
4628.2
3.16053
4620.75
3.16032
4632.63
3.16011
4629.6
3.1599
4646.47
3.15969
4682.4
3.15948
4686.17
3.15927
4653.34
3.15905
4653.28
3.15884
4678.06
3.15863
4666.44
3.15842
4688.83
3.15821
4708.95
3.158
4699.54
3.15779
4675.8
3.15758
4713.69
3.15737
4723.62
3.15716
4718.36
3.15695
4720.88
3.15674
4721.43
3.15653
4724.57
3.15632
4722.61
3.15611
4750.65
3.1559
4727.98
3.15569
4721.94
3.15548
4739.23
3.15527
4728.45
3.15506
4735.23
3.15485
4744.2
3.15464
4730.05
3.15443
4745.76
3.15422
4724.93
3.15401
4724.98
3.1538
4721.48
3.15359
4741.17
3.15338
4754.75
3.15317
4762.73
3.15296
4731.85
3.15275
4752.25
3.15254
4753.35
3.15233
4755.4
3.15212
4747.22
3.15192
4741.09
3.15171
4768.66
3.1515
4752.32
3.15129
4770.93
3.15108
4735.66
3.15087
4754.61
3.15066
4738.72
3.15045
4737.87
3.15024
4751.88
3.15003
4744.68
3.14982
4749.1
3.14962
4742.02
3.14941
4753.61
3.1492
4765.14
3.14899
4777.72
3.14878
4775.3
3.14857
4739.05
3.14836
4763.13
3.14815
4780.89
3.14795
4791.72
3.14774
4803.18
3.14753
4798.22
3.14732
4787.08
3.14711
4778.91
3.1469
4794.27
3.1467
4801.04
3.14649
4800.01
3.14628
4791.48
3.14607
4830.87
3.14586
4800.25
3.14566
4801.76
3.14545
4833.81
3.14524
4814.28
3.14503
4834.95
3.14482
4850.61
3.14462
4840.53
3.14441
4847.2
3.1442
4886.34
3.14399
4881.42
3.14379
4885.8
3.14358
4863.56
3.14337
4881.09
3.14316
4892.54
3.14295
4886.48
3.14275
4891.98
3.14254
4907.35
3.14233
4914.73
3.14213
4923.82
3.14192
4952.85
3.14171
4941.74
3.1415
4953.4
3.1413
4966.1
3.14109
4968.88
3.14088
4986.39
3.14067
4985.95
3.14047
5013.07
3.14026
5059.85
3.14005
5063.49
3.13985
5105.69
3.13964
5142.87
3.13943
5169.33
3.13923
5171.5
3.13902
5206.74
3.13881
5237.23
3.13861
5289.27
3.1384
5334.01
3.13819
5373.96
3.13799
5411.05
3.13778
5472.66
3.13757
5530.12
3.13737
5591.16
3.13716
5631.26
3.13695
5715.9
3.13675
5760.42
3.13654
5831.16
3.13634
5935.4
3.13613
6020.91
3.13592
6153.01
3.13572
6213.98
3.13551
6295.02
3.13531
6466.67
3.1351
6600.44
3.13489
6761.72
3.13469
6897.97
3.13448
7042.98
3.13428
7243.16
3.13407
7452.2
3.13386
7684.96
3.13366
7955.21
3.13345
8145.51
3.13325
8404.54
3.13304
8660.39
3.13284
8864.96
3.13263
9005.56
3.13243
9087.38
3.13222
9049.39
3.13202
8965.17
3.13181
8752.13
3.1316
8491.31
3.1314
8092.59
3.13119
7663.64
3.13099
7141.13
3.13078
6632.09
3.13058
6163.74
3.13037
5741.83
3.13017
5389.96
3.12996
5110.41
3.12976
4870.41
3.12955
4659.06
3.12935
4484.17
3.12914
4344.13
3.12894
4248.98
3.12873
4161.03
3.12853
4047.18
3.12833
4004.89
3.12812
3954.1
3.12792
3890.98
3.12771
3850.56
3.12751
3804.46
3.1273
3793.59
3.1271
3769.1
3.12689
3743
3.12669
3725.97
3.12649
3693.43
3.12628
3681.6
3.12608
3675.74
3.12587
3656.51
3.12567
3661.17
3.12547
3654.05
3.12526
3643.03
3.12506
3635.05
3.12485
3653.42
3.12465
3658.56
3.12445
3646.27
3.12424
3657.24
3.12404
3656.17
3.12383
3671.13
3.12363
3670.66
3.12343
3685.79
3.12322
3674.48
3.12302
3671.22
3.12282
3691.1
3.12261
3689.42
3.12241
3729.37
3.12221
3732.6
3.122
3757.04
3.1218
3759.01
3.1216
3763.05
3.12139
3767.68
3.12119
3782.06
3.12099
3795.69
3.12078
3820.01
3.12058
3806.29
3.12038
3832.53
3.12017
3850.26
3.11997
3858.6
3.11977
3882.95
3.11956
3903.27
3.11936
3910.72
3.11916
3907.47
3.11896
3910.56
3.11875
3952.93
3.11855
3948.41
3.11835
3958.07
3.11815
3969.52
3.11794
3985.49
3.11774
3989.28
3.11754
3970.79
3.11734
4008.41
3.11713
4027.02
3.11693
4059.59
3.11673
4078.86
3.11653
4069.57
3.11632
4087.87
3.11612
4143.24
3.11592
4170.57
3.11572
4176.3
3.11551
4202
3.11531
4251.55
3.11511
4273.54
3.11491
4302.02
3.11471
4342.14
3.1145
4385.85
3.1143
4443.75
3.1141
4476.97
3.1139
4503.88
3.1137
4571.03
3.1135
4606.55
3.11329
4634.53
3.11309
4662.71
3.11289
4729.86
3.11269
4751.54
3.11249
4818.86
3.11229
4858.33
3.11208
4910.38
3.11188
4976.86
3.11168
5011.82
3.11148
5073.23
3.11128
5150.34
3.11108
5226.16
3.11088
5276.51
3.11068
5377.93
3.11047
5511.07
3.11027
5603.23
3.11007
5706.17
3.10987
5856.65
3.10967
6028.68
3.10947
6195.03
3.10927
6381.81
3.10907
6615.31
3.10887
6926.18
3.10867
7248.32
3.10846
7599.32
3.10826
8007.52
3.10806
8571.49
3.10786
9117.59
3.10766
9702.72
3.10746
10331.9
3.10726
10910.8
3.10706
11440.1
3.10686
11928.1
3.10666
12489.1
3.10646
13223.5
3.10626
14077.1
3.10606
15065.4
3.10586
15962.8
3.10566
16455.1
3.10546
16239
3.10526
15074.4
3.10506
13084.2
3.10486
10550.1
3.10466
8016.14
3.10446
5855.01
3.10426
4273.32
3.10406
3197.39
3.10386
2505.71
3.10366
2055.98
3.10346
1734.96
3.10326
1504.74
3.10306
1328.14
3.10286
1204.72
3.10266
1104.61
3.10246
1031.93
3.10226
966.562
3.10206
908.891
3.10186
859.484
3.10166
808.579
3.10146
762.518
3.10126
730.599
3.10106
712.672
3.10086
692.485
3.10067
664.89
3.10047
647.694
3.10027
622.447
3.10007
606.669
3.09987
598.578
3.09967
585.153
3.09947
568.919
3.09927
550.346
3.09907
534.889
3.09887
532.222
3.09868
519.736
3.09848
510.921
3.09828
513.912
3.09808
496.677
3.09788
496.859
3.09768
490.102
3.09748
480.908
3.09728
480.985
3.09709
473.624
3.09689
471.188
3.09669
464.142
3.09649
454.98
3.09629
452.692
3.09609
448.731
3.0959
442.342
3.0957
438.984
3.0955
433.898
3.0953
436.807
3.0951
427.533
3.0949
418.371
3.09471
421.597
3.09451
415.603
3.09431
419.083
3.09411
419.649
3.09391
418.208
3.09372
414.593
3.09352
410.913
3.09332
406.118
3.09312
400.976
3.09292
399.317
3.09273
405.606
3.09253
399.124
3.09233
395.392
3.09213
390.778
3.09194
387.382
3.09174
393.581
3.09154
393.045
3.09134
387.946
3.09115
386.599
3.09095
385.747
3.09075
391.606
3.09055
389.175
3.09036
382.926
3.09016
381.955
3.08996
380.651
3.08977
384.365
3.08957
385.475
3.08937
386.485
3.08917
385.694
3.08898
377.127
3.08878
383.7
3.08858
376.968
3.08839
377.302
3.08819
377.639
3.08799
376.698
3.0878
372.901
3.0876
376.882
3.0874
364.403
3.08721
370.409
3.08701
366.634
3.08681
369.513
3.08662
368.889
3.08642
369.577
3.08622
368.134
3.08603
368.186
3.08583
372.155
3.08563
367.473
3.08544
361.435
3.08524
363.518
3.08505
367.619
3.08485
364.616
3.08465
362.545
3.08446
366.932
3.08426
367.957
3.08406
361.94
3.08387
357.379
3.08367
362.516
3.08348
364.316
3.08328
362.677
3.08308
361.437
3.08289
360.341
3.08269
361.18
3.0825
357.166
3.0823
357.208
3.08211
356.901
3.08191
355.416
3.08171
360.069
3.08152
352.878
3.08132
346.514
3.08113
354.877
3.08093
357.099
3.08074
349.432
3.08054
345.77
3.08035
347.442
3.08015
358.678
3.07996
356.764
3.07976
351.647
3.07957
348.885
3.07937
343.464
3.07918
341.176
3.07898
350.804
3.07879
347.849
3.07859
350.305
3.0784
344.668
3.0782
346.388
3.07801
347.208
3.07781
354.337
3.07762
346.383
3.07742
348.368
3.07723
348.059
3.07703
349.153
3.07684
347.357
3.07664
344.779
3.07645
349.099
3.07625
353.921
3.07606
344.951
3.07586
349.23
3.07567
342.259
3.07547
344.514
3.07528
346.117
3.07509
349.295
3.07489
347.788
3.0747
348.794
3.0745
353.215
3.07431
344.191
3.07411
340.781
3.07392
349.284
3.07373
355.594
3.07353
346.291
3.07334
341.093
3.07314
345.426
3.07295
351.653
3.07276
350.366
3.07256
353.521
3.07237
351.537
3.07218
351.621
3.07198
340.338
3.07179
350.491
3.07159
351.171
3.0714
362.305
3.07121
360.589
3.07101
355.255
3.07082
363.877
3.07063
364.437
3.07043
350.675
3.07024
356.037
3.07005
358.674
3.06985
349.016
3.06966
345.512
3.06947
355.365
3.06927
352.105
3.06908
357.946
3.06889
353.385
3.06869
355.225
3.0685
348.652
3.06831
349.576
3.06811
346.531
3.06792
344.496
3.06773
342.149
3.06753
348.156
3.06734
346.528
3.06715
349.645
3.06696
350.02
3.06676
344.168
3.06657
344.756
3.06638
351.633
3.06619
345.271
3.06599
347.319
3.0658
347.093
3.06561
348.016
3.06541
350.68
3.06522
344.407
3.06503
349.091
3.06484
350.479
3.06465
351.67
3.06445
350.148
3.06426
350.705
3.06407
346.856
3.06388
352.35
3.06368
347.179
3.06349
348.244
3.0633
348.719
3.06311
355.053
3.06292
end of experiment
