VAMAS Surface Chemical Analysis Standard Data Transfer Format 1988 May 4
Not Specified
Not Specified
Not Specified
Not Specified
6
Casa Info Follows CasaXPS Version 2.3.25PR1.0
0
Created by SpecsLab Prodigy, Version 4.73.2-r95032 
SourceAnalyserAngle: Not Specified
CasaRowLabel:Ni
CasaRowLabel:NiO
NORM
REGULAR
0
1
Exp Variable
d
0
0
0
0
4
Survey
Ni
2021
4
29
13
43
28
0
17
Casa Info Follows
0
0
0
0
File = E:/OwnCloud/XPS lab/EX492_S776_Ni Oxidation.sle
Group = RT in vacuum, #Treatments:30min sputter, #Temp:RT , #Pressure:vacuum , #Atmosphere:{:}, #Comments:  
First of group = 1
Spectrum ID = 3
Analyzer lens = LargeArea:1.5kV
Analyzer slit = 4:7x20c\C:mesh
Scan mode = FixedAnalyzerTransmission
Kinetic energy start = 286.61
PCA Coefs = 183133, -17152.6, -29.7063, -194.128, 
C:\Users\Mark\Downloads\EX492_S776_Ni Oxidation.vms
c:\users\mark\downloads\ex492_ni references.vms
C:\Users\pielsticker\Lukas\MPI-CEC\Projects\deepxps\xpsdeeplearning\data\references\NiCoFe\EX491-495 Fe, Ni, Co oxide references.vms
XPS
3
Al
1486.61
0
0
0
54.5
180
FAT
100
1
4.1408
0
0
0
0
0
Survey

-1
kinetic energy
eV
286.61
1
2
counts
d
Transmission
d
pulse counting
0.1
1
0
0
0
0
2
ESCAPE DEPTH TYPE
d
1
MFP Exponent
d
0
2402
297.34
23925.8
1
1
4699.45
1
4711.84
1
4756.39
1
4739.41
1
4769.21
1
4767.2
1
4785.55
1
4796.73
1
4786.26
1
4821.66
1
4842.97
1
4857.94
1
4854.65
1
4866.86
1
4882.58
1
4884.61
1
4869.18
1
4902.97
1
4901.28
1
4952.19
1
5004.7
1
4978.68
1
4982.68
1
4980.08
1
4977.32
1
5023.29
1
4997.95
1
5031.01
1
5042.9
1
5081.65
1
5109.06
1
5103.86
1
5115.32
1
5156.99
1
5124.36
1
5154.89
1
5148.94
1
5149.3
1
5198.96
1
5196.32
1
5216.57
1
5247.88
1
5221.61
1
5254.21
1
5248.04
1
5274.07
1
5322.32
1
5312.85
1
5278
1
5300.56
1
5334.7
1
5323.64
1
5409.71
1
5431.31
1
5414.39
1
5439.14
1
5435.12
1
5464.02
1
5470.5
1
5488.32
1
5525.82
1
5545.28
1
5521.21
1
5557.72
1
5566.52
1
5578.92
1
5599.6
1
5633.68
1
5658.16
1
5658.92
1
5651.48
1
5718.1
1
5726.94
1
5722.06
1
5741.87
1
5762.12
1
5801.96
1
5815.79
1
5821.6
1
5822.84
1
5823.41
1
5834.23
1
5836.77
1
5854.92
1
5928.24
1
5921.31
1
5901.12
1
5931.68
1
5965.17
1
6018.48
1
6064.23
1
6023.05
1
6028.98
1
6046.58
1
6101.58
1
6138.56
1
6135.7
1
6130.28
1
6178.23
1
6223.22
1
6199.45
1
6219.48
1
6254.64
1
6272.31
1
6289.39
1
6238.54
1
6260.46
1
6341.71
1
6339.96
1
6355.07
1
6405.35
1
6426
1
6397.67
1
6444.8
1
6444.46
1
6447.52
1
6513.58
1
6510
1
6536.56
1
6545.2
1
6567.79
1
6622.92
1
6611.54
1
6624.43
1
6643.01
1
6653.56
1
6708.02
1
6727.22
1
6741.95
1
6742.7
1
6786.56
1
6829.28
1
6789.78
1
6851.28
1
6865.48
1
6886.71
1
6897.19
1
6952.96
1
6924.04
1
6953.54
1
6980.7
1
7024.95
1
7071.7
1
7060.7
1
7078.36
1
7118.11
1
7185.19
1
7209.65
1
7215.52
1
7197.97
1
7272.44
1
7290.63
1
7322.52
1
7362.36
1
7391.49
1
7362.89
1
7434.5
1
7446.08
1
7470.84
1
7491.39
1
7494.94
1
7503.1
1
7556.59
1
7638.88
1
7662.07
1
7641.17
1
7722.36
1
7754.09
1
7745.15
1
7751.1
1
7817.42
1
7884.72
1
7820.54
1
7861.23
1
7900.33
1
7909.8
1
7930.16
1
7962.4
1
8067.45
1
8066.95
1
8105.27
1
8196.69
1
8202.25
1
8244.6
1
8326.53
1
8457.48
1
8542.71
1
8660.07
1
8791.36
1
8933.09
1
9046.58
1
9092.66
1
9107.66
1
8917.83
1
8694.36
1
8389.67
1
8163.53
1
7999.89
1
7918.97
1
7775.96
1
7729.55
1
7685.82
1
7680.14
1
7678.65
1
7693.85
1
7704.14
1
7736.14
1
7672.02
1
7641.5
1
7704.02
1
7690.98
1
7680.76
1
7695.31
1
7740.99
1
7751.73
1
7761.53
1
7765.91
1
7804.17
1
7886.03
1
7836.41
1
7843.42
1
7927.06
1
7942.33
1
7972.94
1
7962.01
1
8004.42
1
8048.49
1
8033.31
1
8098.12
1
8121.48
1
8103.29
1
8058.79
1
8130.48
1
8132.96
1
8156.99
1
8147.22
1
8164.18
1
8141.35
1
8176.13
1
8226.16
1
8243.58
1
8220.16
1
8268.96
1
8289.66
1
8324.96
1
8366.3
1
8368.15
1
8402.6
1
8436.1
1
8513.66
1
8536.6
1
8519.14
1
8608.14
1
8548.37
1
8548.03
1
8620.14
1
8647.66
1
8659.61
1
8703.54
1
8785.05
1
8726.03
1
8727.8
1
8841.89
1
8878.5
1
8899.59
1
8866.93
1
8963.42
1
8992.54
1
8963.4
1
9048.3
1
9093.3
1
9111.13
1
9117.82
1
9188.15
1
9270.06
1
9286.82
1
9321.73
1
9300.59
1
9414
1
9392.04
1
9465.6
1
9538.19
1
9542.95
1
9583.2
1
9651.22
1
9688.13
1
9751.39
1
9826.62
1
9870.36
1
9941.61
1
10000.9
1
10041.7
1
10088.3
1
10152.3
1
10160.5
1
10256.8
1
10394.7
1
10434.4
1
10435.3
1
10585.2
1
10617.2
1
10628.9
1
10678.8
1
10787.1
1
10826
1
10883.7
1
10990.4
1
11032.5
1
11178.5
1
11172
1
11268
1
11328.8
1
11406.1
1
11547.3
1
11706.7
1
11736.7
1
11792.7
1
11888
1
11936.7
1
11882.2
1
11939.3
1
12167.3
1
12536.2
1
12932.5
1
13427.8
1
13829.6
1
13942.2
1
14230.1
1
15442.1
1
17259.1
1
17109.5
1
14410.9
1
11970.8
1
11007.8
1
10674.4
1
10581.9
1
10493.6
1
10586
1
10936.8
1
11619.5
1
12454.4
1
13051.2
1
13035.8
1
12847.4
1
13359.6
1
15822.1
1
21929.6
1
23869.7
1
16812.1
1
9266.23
1
7076.43
1
6574.16
1
6347.21
1
6242.77
1
6191.24
1
6221.19
1
6174.81
1
6195.86
1
6205.47
1
6244.69
1
6244.83
1
6247.59
1
6284.73
1
6316.98
1
6342.5
1
6388.69
1
6393.23
1
6411.39
1
6481.25
1
6480.69
1
6597.82
1
6586.56
1
6641.66
1
6695.8
1
6741.59
1
6783.44
1
6802.82
1
6740.38
1
6716.98
1
6694.85
1
6634.72
1
6663.98
1
6705.36
1
6755.67
1
6836.21
1
6902.57
1
6981.59
1
7024.09
1
7088.38
1
7061
1
6968.79
1
6842.09
1
6851.43
1
6829.72
1
6826.4
1
6820.64
1
6829.27
1
6901.11
1
6888.03
1
6892.81
1
6908.8
1
7009.44
1
7082.5
1
7129.84
1
7141.9
1
7205.54
1
7224.17
1
7231.17
1
7264.68
1
7338.72
1
7425.59
1
7498.5
1
7562.79
1
7600.22
1
7694.11
1
7792.23
1
7882.01
1
7936.88
1
8084.24
1
8251.27
1
8412.8
1
8541.23
1
8517.72
1
8434.19
1
8186.36
1
8028.98
1
7945.49
1
8000.44
1
8087.94
1
7985.78
1
7655.72
1
7221.23
1
6745.12
1
6384.51
1
6151.19
1
6011.26
1
5956.66
1
5931.68
1
5870.67
1
5810.94
1
5831.48
1
5752.92
1
5729.11
1
5697.08
1
5648.46
1
5717.46
1
5749.17
1
5788.31
1
5823.3
1
5786.96
1
5739.51
1
5659.24
1
5590.5
1
5487.37
1
5540.43
1
5534.76
1
5532.33
1
5503.35
1
5534.89
1
5589.86
1
5618.63
1
5641.51
1
5658.02
1
5722.75
1
5770.26
1
5804.97
1
5881.85
1
5926.9
1
5970.77
1
5973.52
1
6069.01
1
6085.76
1
6139.93
1
6182.79
1
6280.81
1
6335.81
1
6383.65
1
6454.32
1
6541.79
1
6690.6
1
6808.85
1
6992.58
1
7086.94
1
7220.61
1
7438.24
1
7847.18
1
8394.28
1
8939.95
1
8796.97
1
8052.33
1
7368.39
1
6979.77
1
6887.87
1
7015.03
1
7154.97
1
6955.71
1
6503.98
1
6034.47
1
5586.15
1
5150.42
1
4759.57
1
4456.16
1
4334.66
1
4294.17
1
4258.35
1
4205.11
1
4082.99
1
3947.82
1
3863.28
1
3804.58
1
3790.76
1
3758.46
1
3735.47
1
3651.62
1
3587.39
1
3584.03
1
3548.34
1
3531.14
1
3525.37
1
3560.86
1
3560.43
1
3597.06
1
3625.72
1
3668.04
1
3709.91
1
3758.39
1
3810.72
1
3824.18
1
3859.11
1
3881.89
1
3940.21
1
3961.65
1
3997.84
1
4031.7
1
4074.79
1
4096.77
1
4116.13
1
4141.52
1
4154.53
1
4171.04
1
4202.28
1
4236.25
1
4274.11
1
4345.37
1
4410.84
1
4511.83
1
4561.39
1
4646.48
1
4751.19
1
4893.82
1
5110.16
1
5428.86
1
5655.05
1
5793.85
1
6024.9
1
6419.41
1
7019.79
1
8010.19
1
9496.72
1
10394.5
1
9760.16
1
8266.54
1
6901.12
1
5874.6
1
4835.88
1
3618.47
1
2698.1
1
2287.41
1
2142.15
1
2090.25
1
2014.91
1
1939.47
1
1902.18
1
1907.29
1
1977.15
1
2056.68
1
2128.13
1
2046.28
1
1853.97
1
1662.72
1
1510.28
1
1346.59
1
1166.1
1
1024.01
1
933.557
1
892.728
1
869.089
1
870.537
1
853.423
1
847.078
1
843.092
1
845.637
1
850.404
1
837.323
1
826.453
1
829.73
1
833.135
1
826.842
1
832.116
1
853.165
1
849.736
1
860.984
1
854.911
1
837.403
1
841.038
1
847.095
1
845.643
1
837.818
1
826.455
1
828.329
1
822.983
1
822.294
1
821.227
1
813.99
1
815.085
1
826.461
1
822.778
1
814.049
1
818.541
1
833.558
1
820.108
1
823.218
1
817.383
1
812.711
1
820.861
1
846.202
1
822.745
1
827.286
1
831.688
1
831.817
1
841.229
1
855.854
1
841.369
1
838.962
1
846.136
1
856.319
1
849.174
1
844.622
1
845.864
1
846.034
1
841.264
1
849.834
1
859.227
1
841.45
1
839.966
1
850.55
1
847.247
1
864.768
1
860.876
1
861.104
1
855.974
1
856.608
1
851.328
1
852.559
1
858.513
1
867.55
1
867.979
1
872.483
1
874.626
1
886.469
1
869.956
1
875.121
1
863.664
1
886.696
1
883.987
1
911.408
1
951.851
1
1018.57
1
1101.75
1
1115.74
1
1054.39
1
942.988
1
872.44
1
857.346
1
837.802
1
838.161
1
846.093
1
849.586
1
854.658
1
857.729
1
862.396
1
860.115
1
837.596
1
862.135
1
866.828
1
861.721
1
871.381
1
879.934
1
872.484
1
880.171
1
870.231
1
874.447
1
864.048
1
872.842
1
864.603
1
879.018
1
882.366
1
883.61
1
889.35
1
887.649
1
889.721
1
886.978
1
883.065
1
895.011
1
893.947
1
898.993
1
900.295
1
905.899
1
913.145
1
922.936
1
925.138
1
916.439
1
929.682
1
916.215
1
925.987
1
934.021
1
912.706
1
907.342
1
916.217
1
901.216
1
900.327
1
915.086
1
912.407
1
905.294
1
900.855
1
908.461
1
910.578
1
903.403
1
895.854
1
901.908
1
905.267
1
895.077
1
900.875
1
913.564
1
920.197
1
916.272
1
914.822
1
914.288
1
918.524
1
913.639
1
914.347
1
906.819
1
933.767
1
912.342
1
916.32
1
925.738
1
926.991
1
938.112
1
930.568
1
929.232
1
952.463
1
930.37
1
932.59
1
947.831
1
943.113
1
937.956
1
945.417
1
947.771
1
936.094
1
946.999
1
934.677
1
955.125
1
952.645
1
947.699
1
941.865
1
958.54
1
943.428
1
954.106
1
968.1
1
956.36
1
957.89
1
957.652
1
961.495
1
968.069
1
979.446
1
971.532
1
972.107
1
975.559
1
977.825
1
980.982
1
986.314
1
991.321
1
998.812
1
985.099
1
978.006
1
965.944
1
969.859
1
964.531
1
978.608
1
988.281
1
987.44
1
997.28
1
1003.04
1
999.28
1
996.739
1
1001.33
1
992.747
1
996.433
1
1014.16
1
1009.91
1
1024.15
1
1025.41
1
1038.52
1
1035.41
1
1020.84
1
1015.64
1
1013.47
1
1028.27
1
1019.76
1
1024.16
1
1033.73
1
1021.53
1
1033.52
1
1043.12
1
1022.78
1
1031.77
1
1049.33
1
1038.21
1
1048.45
1
1040.06
1
1056.18
1
1051.05
1
1058.48
1
1041.72
1
1049.97
1
1042.17
1
1049.21
1
1052.64
1
1050.27
1
1054.49
1
1079.04
1
1064.43
1
1075.61
1
1056.98
1
1067.36
1
1074.74
1
1062.27
1
1082.17
1
1074.55
1
1081.14
1
1071.44
1
1068.3
1
1094.86
1
1104.31
1
1103.85
1
1103.92
1
1075.37
1
1102.39
1
1108.38
1
1112.43
1
1108.15
1
1103.52
1
1121.75
1
1131.82
1
1121.03
1
1122.25
1
1118.41
1
1131.02
1
1136.99
1
1136.33
1
1124.8
1
1111.25
1
1129.05
1
1140.54
1
1148.63
1
1136.86
1
1124.23
1
1124.46
1
1123.62
1
1134.16
1
1138.41
1
1144.55
1
1139.47
1
1142.64
1
1150.07
1
1156.13
1
1171.12
1
1184.09
1
1210.64
1
1237.32
1
1284.53
1
1281.15
1
1233.45
1
1200.3
1
1173.72
1
1172.13
1
1166.39
1
1156.29
1
1172.33
1
1190.2
1
1174.74
1
1177.08
1
1172.72
1
1180.11
1
1176.12
1
1200.51
1
1184.25
1
1188.37
1
1181.31
1
1181.6
1
1176.87
1
1183.74
1
1177.72
1
1191.77
1
1191.71
1
1198.57
1
1203.51
1
1214.95
1
1226.46
1
1216.32
1
1207.22
1
1232.01
1
1255.21
1
1278.39
1
1333.58
1
1433.96
1
1454.69
1
1321.39
1
1221.82
1
1211.79
1
1188.89
1
1188.38
1
1198.47
1
1199.37
1
1192.46
1
1181.59
1
1191.03
1
1205.51
1
1213.43
1
1223.19
1
1236.16
1
1221.12
1
1231.42
1
1236.42
1
1225.58
1
1234.91
1
1221.16
1
1222.35
1
1212.08
1
1218.73
1
1220.09
1
1221.02
1
1221.72
1
1211.14
1
1215.51
1
1227.64
1
1242.7
1
1235.48
1
1218.52
1
1222.41
1
1236.11
1
1238.51
1
1252.8
1
1269.2
1
1294.22
1
1372.9
1
1448.82
1
1529.67
1
1561.17
1
1402.1
1
1260.06
1
1226.09
1
1227.85
1
1233.31
1
1239.31
1
1235.91
1
1246.05
1
1218.7
1
1231.08
1
1261.53
1
1242.85
1
1250.9
1
1259.42
1
1272.23
1
1254.08
1
1262.78
1
1276.37
1
1261.64
1
1269.83
1
1265.8
1
1255.8
1
1290.66
1
1258.85
1
1255.74
1
1276.49
1
1299
1
1300.41
1
1298.16
1
1321.22
1
1307.95
1
1288.19
1
1292.89
1
1279.74
1
1310.75
1
1312.66
1
1320.04
1
1320.74
1
1332.92
1
1332.76
1
1347.73
1
1327.52
1
1351.21
1
1345.46
1
1334.12
1
1337.12
1
1357.22
1
1361.66
1
1362.73
1
1356.29
1
1360.61
1
1379.3
1
1374.9
1
1380.93
1
1404.35
1
1383.85
1
1388.39
1
1408.55
1
1397.12
1
1384.36
1
1403.51
1
1418.36
1
1414.79
1
1414.87
1
1425.03
1
1412.61
1
1422.66
1
1418.69
1
1436.59
1
1423.24
1
1432.14
1
1447.24
1
1460.34
1
1467.04
1
1467.61
1
1469.29
1
1462.97
1
1477.45
1
1509.87
1
1498
1
1499.08
1
1504.75
1
1521.29
1
1512.61
1
1553.31
1
1551.21
1
1546.63
1
1549.41
1
1542.57
1
1567.95
1
1585.74
1
1592.51
1
1584.31
1
1621.85
1
1625.09
1
1617.88
1
1645.45
1
1663.09
1
1662.57
1
1673.1
1
1693.44
1
1692.92
1
1702.97
1
1710.2
1
1723.97
1
1727.71
1
1723.05
1
1717.39
1
1711.65
1
1720.13
1
1741.13
1
1754.41
1
1775.92
1
1764.35
1
1788.79
1
1824.09
1
1822.27
1
1823.69
1
1857.1
1
1886.05
1
1919.09
1
1986.8
1
2088.5
1
2137.77
1
2174.3
1
2242.76
1
2315.89
1
2492.88
1
2767.74
1
3129.22
1
3192.2
1
2736.07
1
2230.25
1
1891.95
1
1729.42
1
1656.96
1
1641.91
1
1649.43
1
1643.11
1
1637.71
1
1650.58
1
1687.08
1
1682.98
1
1707.66
1
1726.16
1
1710.18
1
1722.2
1
1751.73
1
1778.1
1
1770.56
1
1765.83
1
1776.78
1
1779.09
1
1736.14
1
1727.2
1
1742.69
1
1740.99
1
1757.27
1
1777.22
1
1854.14
1
1902.54
1
2000.09
1
2071.3
1
2030.02
1
1907.91
1
1912.44
1
1974.27
1
2089.34
1
2250.82
1
2432.21
1
2676.45
1
3177.26
1
4060.19
1
4899.79
1
5191.53
1
4155.76
1
2412.44
1
1273.93
1
806.856
1
611.307
1
505.526
1
444.691
1
406.359
1
367.408
1
364.856
1
353.755
1
335.852
1
328.046
1
326.134
1
332.494
1
327.797
1
330.19
1
329.943
1
320.262
1
322.317
1
326.62
1
323.635
1
325.032
1
329.258
1
334.709
1
325.916
1
342.336
1
351.983
1
365.185
1
357.567
1
360.252
1
374.167
1
374.155
1
376.868
1
388.747
1
380.992
1
380.338
1
377.905
1
377.479
1
374.456
1
377.737
1
379.588
1
398.68
1
407.172
1
393.758
1
381.913
1
376.548
1
368.051
1
360.905
1
369.06
1
373.06
1
387.565
1
388.327
1
404.704
1
428.773
1
454.826
1
499.374
1
566.312
1
617.513
1
682.051
1
740.101
1
800.407
1
971.997
1
1327.61
1
1637.15
1
1368.55
1
636.463
1
Ni2p
Ni
2021
4
29
13
47
1
0
17
Casa Info Follows
0
0
0
0
File = E:/OwnCloud/XPS lab/EX492_S776_Ni Oxidation.sle
Group = RT in vacuum, #Treatments:30min sputter, #Temp:RT , #Pressure:vacuum , #Atmosphere:{:}, #Comments:  
First of group = 0
Spectrum ID = 4
Analyzer lens = AngleResolvedMode22:1.5kV
Analyzer slit = 4:7x20c\C:mesh
Scan mode = FixedAnalyzerTransmission
Kinetic energy start = 596.61
PCA Coefs = 190810, -40055.7, -202.957, -142.327, 70.9683, 
C:\Users\Mark\Downloads\EX492_S776_Ni Oxidation.vms
c:\users\mark\downloads\ex492_ni references.vms
C:\Users\pielsticker\Lukas\MPI-CEC\Projects\deepxps\xpsdeeplearning\data\references\NiCoFe\EX491-495 Fe, Ni, Co oxide references.vms
XPS
4
Al
1486.61
0
0
0
54.5
180
FAT
20
1
4.1408
0
0
0
0
0
Ni
2p
-1
kinetic energy
eV
596.61
0.1
2
counts
d
Transmission
d
pulse counting
0.1
3
0
0
0
0
2
ESCAPE DEPTH TYPE
d
1
MFP Exponent
d
0
1002
4049.78
27322.3
1
1
7694.49
1
7709.97
1
7774.09
1
7767.08
1
7793.16
1
7805.07
1
7794.91
1
7780.07
1
7726.26
1
7809.02
1
7820.68
1
7809.69
1
7803.3
1
7825.53
1
7862.65
1
7807.74
1
7816.49
1
7836.62
1
7815.06
1
7800.96
1
7861.02
1
7897.82
1
7863.47
1
7890.83
1
7872.82
1
7879.83
1
7924.06
1
7904.55
1
7951.42
1
7942.64
1
7876.86
1
7902.57
1
7913.54
1
7947.92
1
7882.93
1
7940.03
1
7953.88
1
7959.18
1
7962.96
1
7966.93
1
7918.34
1
7987.57
1
8014.74
1
8041.56
1
8033.48
1
7994.67
1
7967.4
1
7982.5
1
8053.52
1
8055.77
1
8009.96
1
8007.74
1
8017.1
1
8072.37
1
8062.71
1
8078.81
1
8056.22
1
8062.66
1
8069
1
8085.57
1
8083.31
1
8089.68
1
8107.8
1
8112.24
1
8123.94
1
8089.07
1
8082.05
1
8108.13
1
8116.91
1
8086.85
1
8130.15
1
8175.5
1
8183.5
1
8179.95
1
8162.14
1
8166.09
1
8211.19
1
8228.81
1
8222.44
1
8222.1
1
8239.74
1
8195.04
1
8201.44
1
8140.65
1
8200
1
8160.42
1
8166.75
1
8177.4
1
8182.68
1
8142.5
1
8122.83
1
8156.52
1
8155.76
1
8185.26
1
8147.92
1
8131.86
1
8118.86
1
8095.23
1
8125.77
1
8142.79
1
8132.58
1
8201.08
1
8170.91
1
8203.25
1
8148.61
1
8213.76
1
8194.45
1
8172.03
1
8229.16
1
8233.19
1
8231.02
1
8247.06
1
8315.53
1
8294.29
1
8243.64
1
8295.08
1
8362.68
1
8361.67
1
8391.15
1
8404.75
1
8424.2
1
8418.62
1
8462.51
1
8492.66
1
8514.99
1
8534.59
1
8565.17
1
8638.67
1
8607.93
1
8663.39
1
8687.29
1
8717.93
1
8718.34
1
8848.84
1
8794.06
1
8849.43
1
8956.96
1
8973.83
1
8970.52
1
9013.27
1
9095.81
1
9061.21
1
9120.03
1
9141.98
1
9229.89
1
9250.21
1
9361.42
1
9429.43
1
9430.17
1
9418.92
1
9446.67
1
9524.08
1
9556.45
1
9574.46
1
9559.65
1
9647.85
1
9679.14
1
9597.89
1
9561.74
1
9592.43
1
9590.3
1
9536.1
1
9565.25
1
9530.35
1
9463.56
1
9497.82
1
9510.55
1
9471.51
1
9493.36
1
9498.63
1
9447.48
1
9460.44
1
9452.55
1
9495.66
1
9493.28
1
9499.08
1
9564.26
1
9536.76
1
9644.48
1
9709.81
1
9799.29
1
9906.24
1
10007.9
1
10108
1
10184.4
1
10307.3
1
10458.6
1
10663.4
1
10812.9
1
11019.4
1
11306.5
1
11573.2
1
11809.1
1
12231.4
1
12604.5
1
12873.3
1
13248.7
1
13595.7
1
13946.8
1
14187.3
1
14364.4
1
14427.1
1
14295.5
1
13981.6
1
13657.1
1
13151.6
1
12636.4
1
12115.7
1
11510
1
10949.2
1
10388.1
1
9977.92
1
9590.44
1
9242.71
1
8973.91
1
8724.96
1
8535.48
1
8359.85
1
8243.03
1
8056.85
1
7956.54
1
7880.86
1
7832.67
1
7725.57
1
7681.87
1
7629.58
1
7562.65
1
7484.62
1
7494.67
1
7440.28
1
7359.28
1
7307.3
1
7301.19
1
7265.38
1
7299.7
1
7234.61
1
7220.37
1
7200.34
1
7274.55
1
7227.68
1
7189.85
1
7186.69
1
7214.85
1
7212.74
1
7150.56
1
7180.89
1
7153.77
1
7147.19
1
7172.19
1
7160.16
1
7174.67
1
7151.19
1
7153.06
1
7175.32
1
7164.31
1
7126.04
1
7101.48
1
7107.77
1
7137.05
1
7097
1
7084.59
1
7091.38
1
7103.17
1
7085.27
1
7068.53
1
7051.69
1
7117.12
1
7080.05
1
7102.67
1
7063.9
1
7115.33
1
7120.77
1
7117.41
1
7095.56
1
7126.87
1
7197.04
1
7149.84
1
7200.63
1
7219.65
1
7220.18
1
7259.62
1
7290.63
1
7264.22
1
7307.94
1
7296.23
1
7358.69
1
7431.44
1
7467.53
1
7512.25
1
7536.07
1
7559.35
1
7621.85
1
7713.06
1
7762.17
1
7796.89
1
7881.68
1
7985.02
1
8023.5
1
8087.94
1
8182.57
1
8234.9
1
8284.36
1
8426.42
1
8508.79
1
8587.12
1
8655.56
1
8716.25
1
8856.62
1
8897.45
1
8946.22
1
9010.38
1
9091.22
1
9195.63
1
9259.72
1
9297.86
1
9273.08
1
9267.54
1
9273.67
1
9172.16
1
9142.43
1
9050.77
1
8999.35
1
8926.02
1
8819.58
1
8760.66
1
8694.04
1
8655.5
1
8638.29
1
8619.23
1
8595.05
1
8582.18
1
8553.45
1
8528.59
1
8521.69
1
8498.66
1
8479.56
1
8556.71
1
8582.05
1
8512.43
1
8523.98
1
8553.39
1
8565.28
1
8647.66
1
8662.3
1
8656.01
1
8722.97
1
8756.4
1
8785.59
1
8791.78
1
8926.6
1
9007.82
1
9185.3
1
9310.65
1
9425.41
1
9566.78
1
9779.53
1
10039
1
10275.2
1
10564.1
1
10908.3
1
11286.5
1
11781.5
1
12386.2
1
13080.8
1
13911.4
1
14894.6
1
16193.6
1
17614.8
1
19349.4
1
21253
1
23244.7
1
25132
1
26670
1
27449.8
1
27309.6
1
26105
1
24020.3
1
21275.8
1
18223.9
1
15300.1
1
12762
1
10763.1
1
9274.81
1
8177.48
1
7389.31
1
6774.59
1
6305.5
1
5991.37
1
5694.54
1
5479.07
1
5320.76
1
5211.68
1
5097.4
1
5012.48
1
4910.29
1
4822.75
1
4760.3
1
4715.5
1
4668.12
1
4597.89
1
4555.5
1
4535.78
1
4492.83
1
4421.45
1
4407.44
1
4381.45
1
4396.78
1
4374.99
1
4352.61
1
4329.43
1
4338.79
1
4322.35
1
4286.62
1
4309.25
1
4272.53
1
4243.82
1
4253.81
1
4251.07
1
4245.72
1
4215.23
1
4246.71
1
4238.07
1
4227.06
1
4163.92
1
4200.79
1
4202.27
1
4205.69
1
4223.21
1
4201.59
1
4196
1
4202.24
1
4194.46
1
4188.09
1
4187.69
1
4172.62
1
4160.99
1
4146.58
1
4119.79
1
4191.35
1
4162.66
1
4139.87
1
4156.6
1
4143.4
1
4153.15
1
4165.43
1
4149.67
1
4142.3
1
4127.57
1
4126.69
1
4146.55
1
4158.11
1
4143.14
1
4125.33
1
4150.67
1
4140.71
1
4142.69
1
4136.8
1
4125.1
1
4137.28
1
4135.68
1
4171.39
1
4165.16
1
4141.13
1
4138.53
1
4149.84
1
4180.7
1
4182.47
1
4155.57
1
4140.71
1
4128.32
1
4134.3
1
4155.23
1
4140.17
1
4164.02
1
4131.8
1
4150.11
1
4124.71
1
4139.84
1
4136.4
1
4161.91
1
4179.52
1
4153.11
1
4202.13
1
4193.98
1
4193.96
1
4153.98
1
4163.3
1
4121.79
1
4160.11
1
4171.19
1
4172.88
1
4180.07
1
4128.17
1
4167.1
1
4187.27
1
4174.84
1
4186.69
1
4181.21
1
4199.12
1
4182.87
1
4171.84
1
Survey
NiO
2021
4
29
23
25
58
0
17
Casa Info Follows
0
0
0
0
File = E:/OwnCloud/XPS lab/EX492_S776_Ni Oxidation.sle
Group = RT in vacuum, #Treatments: , #Temp:RT , #Pressure:vacuum , #Atmosphere:, #Comments:  
First of group = 1
Spectrum ID = 19
Analyzer lens = LargeArea:1.5kV
Analyzer slit = 4:7x20c\C:mesh
Scan mode = FixedAnalyzerTransmission
Kinetic energy start = 286.61
PCA Coefs = 144137, 9370.22, -1718.27, 1048.98, 
C:\Users\Mark\Downloads\EX492_S776_Ni Oxidation.vms
c:\users\mark\downloads\ex492_ni references.vms
C:\Users\pielsticker\Lukas\MPI-CEC\Projects\deepxps\xpsdeeplearning\data\references\NiCoFe\EX491-495 Fe, Ni, Co oxide references.vms
XPS
15
Al
1486.61
0
0
0
54.5
180
FAT
100
1
4.1408
0
0
0
0
0
Survey

-1
kinetic energy
eV
286.61
1
2
counts
d
Transmission
d
pulse counting
0.1
1
0
0
0
0
2
ESCAPE DEPTH TYPE
d
1
MFP Exponent
d
0
2402
106.665
13566.8
1
1
4025.6
1
4055.22
1
4076.4
1
4059.62
1
4116.38
1
4116.66
1
4064.5
1
4086.43
1
4101.6
1
4150.96
1
4141.52
1
4139.77
1
4162.58
1
4167.49
1
4179.91
1
4225.19
1
4228.4
1
4211.03
1
4228.14
1
4231.34
1
4232.72
1
4246.14
1
4239.06
1
4244.83
1
4273.05
1
4306.67
1
4311.25
1
4346.39
1
4341.38
1
4328.93
1
4386.42
1
4368.1
1
4407.19
1
4432.95
1
4449.97
1
4439.32
1
4428.45
1
4475.74
1
4457.44
1
4461.42
1
4477.68
1
4512.19
1
4492.57
1
4525.66
1
4530.14
1
4545.18
1
4572.85
1
4599.57
1
4587.22
1
4611.88
1
4621.6
1
4656.6
1
4652.53
1
4676.53
1
4665.46
1
4641.49
1
4712.2
1
4719.34
1
4714.77
1
4708.45
1
4731.03
1
4771.33
1
4783.68
1
4792.02
1
4800.19
1
4844.52
1
4830.49
1
4837.28
1
4850.78
1
4877.21
1
4877.77
1
4887.84
1
4902.04
1
4915.27
1
4952.8
1
4961.25
1
4979.02
1
4978.54
1
5011.64
1
5026.69
1
5039.6
1
5060.02
1
5030.43
1
5076.76
1
5074.1
1
5113.22
1
5057.08
1
5092.89
1
5107.2
1
5148
1
5165.81
1
5191.11
1
5178.69
1
5171.77
1
5198.82
1
5187.54
1
5225.36
1
5264.62
1
5267.33
1
5263.6
1
5304.41
1
5286.74
1
5322.55
1
5301.32
1
5331.05
1
5339.72
1
5338.65
1
5382.49
1
5380.09
1
5407.78
1
5441.5
1
5441.92
1
5485.44
1
5498.22
1
5484.36
1
5534.21
1
5559.16
1
5542.67
1
5523.04
1
5570.32
1
5607.53
1
5609.85
1
5594.44
1
5635.8
1
5639.13
1
5642.97
1
5698.63
1
5670.59
1
5733.37
1
5756
1
5778.98
1
5753.29
1
5797.79
1
5825.71
1
5820.41
1
5868.61
1
5858.58
1
5860.25
1
5885.03
1
5880.61
1
5936.19
1
5957.96
1
5933.98
1
5956.01
1
5977.75
1
6015.63
1
6001.19
1
6027.23
1
6049.42
1
6061.81
1
6062.34
1
6081.62
1
6104.14
1
6120.9
1
6140.46
1
6226.39
1
6198.46
1
6212.86
1
6199.04
1
6248.45
1
6311.27
1
6252.08
1
6325.49
1
6301.87
1
6357.45
1
6370.69
1
6399.6
1
6412.1
1
6409.48
1
6399.17
1
6399.23
1
6417.74
1
6423.32
1
6450.85
1
6514.76
1
6553.45
1
6608.36
1
6660.75
1
6746.68
1
6821.5
1
6935.73
1
7037.75
1
7146.72
1
7216.15
1
7271.93
1
7329.85
1
7366.06
1
7345.07
1
7411.64
1
7461.69
1
7455.56
1
7306.57
1
7190.91
1
6991.78
1
6874.3
1
6760.87
1
6672.65
1
6632.42
1
6582.63
1
6574.6
1
6570.83
1
6606.92
1
6656.87
1
6692.44
1
6794.2
1
6799.98
1
6785.21
1
6742.42
1
6648.37
1
6599.95
1
6589.64
1
6628.71
1
6595.04
1
6580.67
1
6589.11
1
6602.1
1
6609.14
1
6613.59
1
6620.01
1
6698.65
1
6772.71
1
6914.94
1
7117.14
1
7357.96
1
7526.69
1
7593.86
1
7518.58
1
7315.14
1
7153.78
1
7020.58
1
6951.64
1
6883
1
6777.45
1
6703.5
1
6726.89
1
6652.7
1
6567.32
1
6591.95
1
6550.05
1
6551.7
1
6543
1
6553.66
1
6515.46
1
6549
1
6555.47
1
6589.39
1
6587.09
1
6594.38
1
6642.47
1
6657.52
1
6657.33
1
6717.33
1
6727.04
1
6723.44
1
6723.35
1
6750.7
1
6753.86
1
6819.33
1
6834.13
1
6832.69
1
6836.19
1
6854.24
1
6860.26
1
6891.23
1
6857.28
1
6907.59
1
6930.49
1
6959.15
1
7037.76
1
7046.24
1
7024.56
1
7093.96
1
7071.33
1
7139.72
1
7115.35
1
7134.47
1
7152.77
1
7221.91
1
7238.23
1
7272.13
1
7257.35
1
7261.94
1
7261.72
1
7302.22
1
7339.47
1
7392.24
1
7443.77
1
7483.3
1
7557.25
1
7533.08
1
7562.73
1
7605.99
1
7614.84
1
7626.37
1
7660.89
1
7670.91
1
7714.22
1
7740.78
1
7733.7
1
7786.52
1
7842.64
1
7836.19
1
7903.49
1
7967.74
1
7903.14
1
7918.74
1
7897.39
1
7858.62
1
7812.52
1
7854.63
1
7767.29
1
7723.19
1
7721.43
1
7750.17
1
7826.16
1
8076.75
1
8481.66
1
8979.38
1
9573.83
1
10005.2
1
10207.1
1
10115.4
1
9839.59
1
9526.79
1
9417.19
1
9719.12
1
10269.9
1
10545.7
1
10324.1
1
9206.29
1
7837.73
1
7305.49
1
7547.03
1
7918.72
1
8228.34
1
8714.58
1
9545.89
1
10468.1
1
11155.7
1
11219.2
1
10503.5
1
9812.68
1
10196.3
1
11612.7
1
12902.9
1
13690.9
1
12343.1
1
8759
1
5958.05
1
5222.54
1
5079.54
1
4968.66
1
4911.23
1
4915.86
1
4888.37
1
4864.19
1
4891.18
1
4890.67
1
4921.65
1
4935.27
1
4942.34
1
4951.65
1
4967.61
1
5003.84
1
5030.08
1
5033.05
1
5078.96
1
5101.76
1
5137.23
1
5165.08
1
5159.1
1
5168.86
1
5203.64
1
5251.43
1
5303.12
1
5276.48
1
5252.98
1
5239.21
1
5223.72
1
5237.85
1
5215.32
1
5234.26
1
5262.47
1
5323.16
1
5363.77
1
5415.56
1
5421.43
1
5465.69
1
5407.61
1
5391.39
1
5366.37
1
5293.76
1
5252.48
1
5231.09
1
5232.06
1
5270.36
1
5246.12
1
5289.75
1
5298.79
1
5284.5
1
5326.29
1
5371.88
1
5372.72
1
5400.94
1
5382.8
1
5384.76
1
5471.48
1
5497.21
1
5504.67
1
5525.49
1
5600.56
1
5633.39
1
5665.37
1
5741.08
1
5803.91
1
5855.56
1
5942.51
1
6023.27
1
6100.15
1
6192.55
1
6235.06
1
6283.26
1
6190.52
1
6178.36
1
6222.4
1
6160.41
1
6175.26
1
6057.09
1
5904.7
1
5759.07
1
5541.4
1
5352.69
1
5145.41
1
4995.24
1
4847.7
1
4774.7
1
4789.51
1
4765.2
1
4720.56
1
4690.61
1
4654.97
1
4678
1
4677.21
1
4639.19
1
4606.22
1
4587.47
1
4562.35
1
4514.5
1
4522.39
1
4460.94
1
4438.55
1
4401.3
1
4391.78
1
4375.04
1
4335.79
1
4338.32
1
4328.15
1
4334.42
1
4346.04
1
4363.07
1
4374.17
1
4357.89
1
4367.48
1
4404.78
1
4411.78
1
4471.38
1
4493.37
1
4477.63
1
4498.5
1
4567.04
1
4568.76
1
4574.26
1
4578.42
1
4634.78
1
4724.17
1
4819.87
1
4896.01
1
4974.33
1
4995.44
1
5012.76
1
5043.5
1
5069.1
1
5186.65
1
5326.17
1
5469.71
1
5667.04
1
5856.6
1
6073.55
1
6094.19
1
5913.3
1
5702.12
1
5500.18
1
5398.43
1
5265.78
1
5186.7
1
5116.47
1
4977.4
1
4670.55
1
4339.78
1
4036.3
1
3863.72
1
3727.85
1
3631.17
1
3606.81
1
3564.6
1
3532.08
1
3478.37
1
3417.32
1
3374.85
1
3316.29
1
3256.14
1
3224.94
1
3159.62
1
3140.63
1
3101.43
1
3082.48
1
3036.02
1
2996.84
1
3000.63
1
2976.31
1
3029.75
1
3018.91
1
3015.13
1
3034.92
1
3033.42
1
3063.97
1
3037.33
1
3078.79
1
3081.01
1
3079.34
1
3114.18
1
3124.57
1
3177.53
1
3198.81
1
3209.86
1
3244.94
1
3272.73
1
3280.51
1
3281.23
1
3290.84
1
3299.63
1
3302.19
1
3314
1
3311.16
1
3266.95
1
3244.73
1
3286.64
1
3393.95
1
3511.72
1
3656.02
1
3824.99
1
4068.02
1
4413.12
1
4740.84
1
5091.05
1
5362.62
1
5526.96
1
5584.3
1
5508.01
1
5446.11
1
5418.15
1
5376.68
1
5310.29
1
4986.91
1
4199
1
3396.89
1
2735
1
2320.49
1
2103.76
1
2057.67
1
2060.52
1
2074.2
1
2101.57
1
2131.08
1
2120.69
1
2113.22
1
2114.93
1
2112.21
1
2083.08
1
2040.47
1
1920.88
1
1755.92
1
1568.38
1
1429.52
1
1342.95
1
1288.64
1
1286.34
1
1280.25
1
1262.69
1
1260.31
1
1269.52
1
1264.35
1
1273.16
1
1283.2
1
1288.16
1
1289.74
1
1289.58
1
1312.49
1
1301.76
1
1314.23
1
1312.48
1
1303.1
1
1323.15
1
1315.41
1
1301.36
1
1284.99
1
1273.76
1
1293.94
1
1280.2
1
1297.18
1
1304.93
1
1299.08
1
1316.75
1
1316.88
1
1318.9
1
1309.67
1
1302.02
1
1308.75
1
1339.52
1
1344.72
1
1344.82
1
1370.9
1
1378.01
1
1365.8
1
1380.13
1
1400.35
1
1414.66
1
1398.15
1
1408.31
1
1405.45
1
1409.67
1
1412.83
1
1401.55
1
1393.11
1
1390.27
1
1386.94
1
1380.41
1
1371.55
1
1389.29
1
1378.9
1
1409.85
1
1415.64
1
1407.85
1
1452.31
1
1528.79
1
1611.36
1
1664.68
1
1672.05
1
1662.66
1
1590.69
1
1532.5
1
1460.07
1
1383.09
1
1344.18
1
1309.58
1
1277.99
1
1238.45
1
1208.18
1
1164.01
1
1129.89
1
1122.99
1
1121.67
1
1140.17
1
1151.8
1
1183.21
1
1208.42
1
1380.78
1
1956.98
1
2913.88
1
5322.25
1
7324.81
1
5226.63
1
1954.43
1
940.425
1
816.164
1
769.064
1
736.149
1
720.011
1
701.738
1
697.545
1
701.608
1
690.702
1
705.456
1
697.18
1
694.829
1
696.982
1
704.108
1
712
1
703.255
1
697.268
1
696.925
1
709.297
1
698.52
1
715.722
1
720.206
1
716.118
1
707.139
1
717.705
1
711.35
1
718.167
1
730.517
1
721.728
1
724.488
1
719.301
1
726.153
1
733.755
1
722.522
1
732.365
1
715.112
1
727.826
1
739.328
1
728
1
736.22
1
745.243
1
728.554
1
731.632
1
721.406
1
730.498
1
731.608
1
721.588
1
725.628
1
728.005
1
720.147
1
716.423
1
716.687
1
713.903
1
725.373
1
734.745
1
734.113
1
710.127
1
721.402
1
718.429
1
719.51
1
721.132
1
737.813
1
744.331
1
743.334
1
729.244
1
713.1
1
726.588
1
739.692
1
750.751
1
743.825
1
746.918
1
741.197
1
739.457
1
750.578
1
752.115
1
749.849
1
749.382
1
733.73
1
743.288
1
737.595
1
745.352
1
743.333
1
761.396
1
758.023
1
756.455
1
761.295
1
764.493
1
759.365
1
771.654
1
764.946
1
767.999
1
762.122
1
762.924
1
754.64
1
758.315
1
765.549
1
778.438
1
783.729
1
770.226
1
761.526
1
776.309
1
766.248
1
769.095
1
754.867
1
767.356
1
784.184
1
773.375
1
773.132
1
774.916
1
781.444
1
781.069
1
775.802
1
777.115
1
797.646
1
784.817
1
794.41
1
787.571
1
777.719
1
787.926
1
783.271
1
782.715
1
796.973
1
786.374
1
795.997
1
811.175
1
813.764
1
812.448
1
814.551
1
821.97
1
796.406
1
783.831
1
797.167
1
807.338
1
807.089
1
810.011
1
808.723
1
818.338
1
817.054
1
809.987
1
805.25
1
814.416
1
815.932
1
805.614
1
804.71
1
816.236
1
832.541
1
819.279
1
825.772
1
816.891
1
834.013
1
825.913
1
821.82
1
841.664
1
832.787
1
828.09
1
827.77
1
827.037
1
834.002
1
843.945
1
841.942
1
855.12
1
833.547
1
843.862
1
837.676
1
849.768
1
854.17
1
841.002
1
854.087
1
847.188
1
851.61
1
856.987
1
862.841
1
838.116
1
844.542
1
850.48
1
858.303
1
860.993
1
868.454
1
865.319
1
868.033
1
866.687
1
868.955
1
856.685
1
870.584
1
857.714
1
870.206
1
866.414
1
861.032
1
881.763
1
883.296
1
882.138
1
880.352
1
895.288
1
898.316
1
898.509
1
890.4
1
895.565
1
903.997
1
884.368
1
885.731
1
904.22
1
887.722
1
895.54
1
908.124
1
906.799
1
914.203
1
926.679
1
916.173
1
909.866
1
927.99
1
901.978
1
920.768
1
930.311
1
918.204
1
924.014
1
920.659
1
897.054
1
913.861
1
930.868
1
907.821
1
930.919
1
934.626
1
927.104
1
926.88
1
925.493
1
929.369
1
924.559
1
930.611
1
934.36
1
930.286
1
930.487
1
935.106
1
946.058
1
938.313
1
940.168
1
943.382
1
951.895
1
992.445
1
1019.67
1
1047.79
1
1089.95
1
1167.8
1
1136.58
1
1023.4
1
958.776
1
955.592
1
931.931
1
950.466
1
954.055
1
963.687
1
947.114
1
957.686
1
954.116
1
947.817
1
973.328
1
963.506
1
970.971
1
973.52
1
986.337
1
968.219
1
958.897
1
962.837
1
945.974
1
948.943
1
955.224
1
962.326
1
957.54
1
963.175
1
967.575
1
958.598
1
955.56
1
989.779
1
980.461
1
981.292
1
979.398
1
975.858
1
989.377
1
987.058
1
986.16
1
981.207
1
992.699
1
1006.08
1
1018.89
1
1017.61
1
1012.58
1
1013.65
1
1000.95
1
998.119
1
1001.86
1
1010.2
1
1000.68
1
987.901
1
1020.67
1
1015.63
1
1015.38
1
1032.51
1
1006.04
1
1012.23
1
1010.75
1
1025.55
1
1031.5
1
1013.03
1
1010.17
1
1015.87
1
1034.2
1
1031.17
1
1046.8
1
1022.41
1
1009.55
1
1032.76
1
1042.49
1
1035.22
1
1040.15
1
1046.22
1
1046.93
1
1053.82
1
1058.52
1
1035.96
1
1042.97
1
1075.18
1
1061.79
1
1057.87
1
1058.95
1
1050.92
1
1062.84
1
1061.9
1
1081.95
1
1102.83
1
1081.02
1
1102.97
1
1081.5
1
1090.27
1
1070.06
1
1063.03
1
1077.54
1
1087.56
1
1098.47
1
1090.54
1
1094.66
1
1087.9
1
1105.68
1
1099.17
1
1102.82
1
1098.87
1
1113.69
1
1120.64
1
1119.77
1
1111.16
1
1128.65
1
1124.02
1
1117.38
1
1125.24
1
1115.88
1
1103.24
1
1127.41
1
1134.96
1
1141.09
1
1167.62
1
1163.62
1
1155.58
1
1165.11
1
1148.69
1
1139.72
1
1158.65
1
1161.57
1
1170.8
1
1168.72
1
1174.58
1
1164.49
1
1179.63
1
1201.78
1
1202.6
1
1208.38
1
1194.76
1
1199.77
1
1213.39
1
1203.8
1
1211.23
1
1221.66
1
1223.97
1
1254.05
1
1263.45
1
1271
1
1284.6
1
1257.7
1
1274.82
1
1271.65
1
1290.99
1
1273.88
1
1278.87
1
1268.07
1
1261.29
1
1251.33
1
1247.48
1
1252.28
1
1233.69
1
1228.34
1
1205.66
1
1208.7
1
1216.94
1
1237.53
1
1272.78
1
1288.24
1
1357.41
1
1433.76
1
1485.04
1
1567.13
1
1626.97
1
1720.68
1
1765.32
1
1790.18
1
1834.49
1
1933.84
1
2036.39
1
2139.18
1
2115.92
1
1883.42
1
1546.72
1
1309.04
1
1200.99
1
1160.16
1
1145.19
1
1153.02
1
1136.32
1
1142.1
1
1116.72
1
1103.12
1
1106.85
1
1100.83
1
1103.88
1
1124.49
1
1126.1
1
1113.08
1
1143.98
1
1157.87
1
1165.11
1
1206.91
1
1277.55
1
1302.46
1
1307.37
1
1259.49
1
1172.56
1
1133.06
1
1146.34
1
1180.55
1
1255.5
1
1312.11
1
1341.44
1
1373.93
1
1408.47
1
1483
1
1590.4
1
1747.35
1
1914.32
1
2017.25
1
2096.42
1
2222.83
1
2528.25
1
3042.19
1
3391.35
1
3000.78
1
1889.98
1
954.421
1
579.678
1
445.673
1
378.375
1
354.962
1
327.769
1
301.981
1
293.522
1
287.522
1
285.518
1
279.335
1
278.646
1
284.288
1
278.819
1
284.827
1
274.183
1
279.482
1
284.299
1
290.818
1
292.004
1
293.747
1
285.498
1
299.033
1
296.779
1
286.788
1
280.83
1
275.047
1
268.241
1
261.528
1
261.741
1
269.176
1
278.56
1
267.367
1
276.127
1
282.496
1
301.322
1
298.05
1
304.167
1
315.94
1
333.644
1
347.716
1
381.91
1
455.808
1
493.779
1
446.211
1
342.186
1
250.005
1
203.821
1
189.457
1
188.821
1
209.897
1
240.697
1
294.353
1
377.599
1
480.549
1
555.99
1
578.498
1
560.868
1
564.034
1
589.111
1
675.989
1
843.075
1
1035.45
1
905.206
1
453.062
1
106.868
1
Ni2p
NiO
2021
4
29
23
29
30
0
17
Casa Info Follows
0
0
0
0
File = E:/OwnCloud/XPS lab/EX492_S776_Ni Oxidation.sle
Group = RT in vacuum, #Treatments: , #Temp:RT , #Pressure:vacuum , #Atmosphere:, #Comments:  
First of group = 0
Spectrum ID = 20
Analyzer lens = AngleResolvedMode22:1.5kV
Analyzer slit = 4:7x20c\C:mesh
Scan mode = FixedAnalyzerTransmission
Kinetic energy start = 596.61
PCA Coefs = 135146, 22871.4, -962.346, 884.156, -199.619, 
C:\Users\Mark\Downloads\EX492_S776_Ni Oxidation.vms
c:\users\mark\downloads\ex492_ni references.vms
C:\Users\pielsticker\Lukas\MPI-CEC\Projects\deepxps\xpsdeeplearning\data\references\NiCoFe\EX491-495 Fe, Ni, Co oxide references.vms
XPS
14
Al
1486.61
0
0
0
54.5
180
FAT
20
1
4.1408
0
0
0
0
0
Ni
2p
-1
kinetic energy
eV
596.61
0.1
2
counts
d
Transmission
d
pulse counting
0.1
3
0
0
0
0
2
ESCAPE DEPTH TYPE
d
1
MFP Exponent
d
0
1002
3223.86
12109.2
1
1
5414.88
1
5405.62
1
5374.87
1
5370.56
1
5355.25
1
5348.96
1
5333.13
1
5347.02
1
5388.81
1
5377.63
1
5380.12
1
5308.46
1
5352.28
1
5333.11
1
5341.6
1
5366.67
1
5315.82
1
5321.27
1
5296.23
1
5310.11
1
5343.29
1
5336.14
1
5308.48
1
5300.28
1
5332.6
1
5345.76
1
5345.57
1
5320.6
1
5305.24
1
5308.07
1
5319.57
1
5316.68
1
5377.35
1
5355.33
1
5354.05
1
5327.17
1
5360.24
1
5354.78
1
5322.74
1
5316.97
1
5351.37
1
5388.86
1
5332.51
1
5330.32
1
5341.09
1
5370.67
1
5450.75
1
5453.63
1
5432.88
1
5469.56
1
5484.82
1
5478.29
1
5539.09
1
5531.07
1
5546.63
1
5595.22
1
5593.53
1
5609.36
1
5688.64
1
5669.05
1
5715.19
1
5755.02
1
5804.86
1
5800.21
1
5869.68
1
5923.83
1
5947.94
1
5984.71
1
5989.83
1
6021.77
1
6083.71
1
6066.97
1
6116.08
1
6107.11
1
6196.66
1
6206.61
1
6245.59
1
6264.98
1
6359.98
1
6412.38
1
6486.75
1
6525.82
1
6602.39
1
6660.56
1
6749.95
1
6775.82
1
6869.34
1
6945.31
1
7004.53
1
6992.89
1
6996.65
1
7000.77
1
7060.25
1
7062.32
1
7112.42
1
7104.6
1
7090.83
1
7103.44
1
7143.81
1
7168.15
1
7160.08
1
7159.99
1
7216.34
1
7189.66
1
7216.64
1
7207.49
1
7211.35
1
7189.56
1
7187.85
1
7170.74
1
7192.74
1
7162.79
1
7125.21
1
7084.41
1
7085.86
1
7072.12
1
7043.44
1
7014.84
1
7022.15
1
6923.8
1
6934.83
1
6922.58
1
6847.17
1
6847.36
1
6807.09
1
6750.18
1
6731.01
1
6712.7
1
6655.4
1
6662.97
1
6649.34
1
6572.41
1
6532.41
1
6548.26
1
6543.03
1
6485.75
1
6503.62
1
6478.8
1
6481.3
1
6451.05
1
6438.54
1
6421.2
1
6413.33
1
6433.37
1
6408.89
1
6428.84
1
6429.25
1
6441.99
1
6487.83
1
6522.23
1
6522.64
1
6530.09
1
6561.45
1
6591.16
1
6683.59
1
6739.36
1
6777.81
1
6841.87
1
6864.02
1
6888.04
1
7016.48
1
7037.08
1
7077.98
1
7164.51
1
7199.9
1
7233.01
1
7272.53
1
7314.5
1
7363.88
1
7408.56
1
7433.48
1
7452.5
1
7479.31
1
7498.47
1
7526.23
1
7522
1
7509.14
1
7514.94
1
7558.77
1
7567.51
1
7545.29
1
7514.02
1
7458.91
1
7505.07
1
7504.02
1
7545.99
1
7549.67
1
7495.49
1
7467.74
1
7413.97
1
7368.88
1
7237.47
1
7037.76
1
6849.03
1
6649.27
1
6351.56
1
6078.15
1
5820.72
1
5613.1
1
5423.9
1
5269.05
1
5110.33
1
5004.7
1
4930.43
1
4879.71
1
4797.94
1
4785.82
1
4736.56
1
4717.82
1
4741.18
1
4724.19
1
4728.32
1
4756.73
1
4794.73
1
4784.77
1
4841.57
1
4871.84
1
4922.31
1
4965.95
1
5011.7
1
5046.86
1
5072.93
1
5117.41
1
5117.17
1
5162.28
1
5183.2
1
5256.83
1
5284.78
1
5257.98
1
5295.62
1
5354.55
1
5358.49
1
5399.74
1
5438.89
1
5491.98
1
5514.2
1
5559.69
1
5588.56
1
5586.78
1
5563.7
1
5582.27
1
5552.81
1
5542.23
1
5516.92
1
5543.51
1
5565.52
1
5569.92
1
5608.85
1
5682.84
1
5676.95
1
5740.99
1
5746.65
1
5824.15
1
5935.46
1
5964.53
1
6077.11
1
6102.77
1
6163.01
1
6202.23
1
6308.51
1
6342.35
1
6357.23
1
6407.73
1
6455.29
1
6508.24
1
6531.16
1
6569.17
1
6670.93
1
6712.75
1
6749.68
1
6804.8
1
6870.22
1
6913.2
1
7009.71
1
7128.07
1
7202.46
1
7271.39
1
7376.21
1
7480.22
1
7619.24
1
7624.01
1
7758.52
1
7857.26
1
7925.13
1
8014.32
1
8064.85
1
8172.34
1
8270.76
1
8296.69
1
8297.53
1
8292.39
1
8236.96
1
8254.89
1
8177.83
1
8117.89
1
8064.36
1
7964.17
1
7918.73
1
7756.55
1
7654.17
1
7650.88
1
7523.45
1
7425.16
1
7311.05
1
7218.78
1
7069.26
1
6942.26
1
6870.42
1
6761.38
1
6690.7
1
6567.77
1
6479.25
1
6417.09
1
6404.18
1
6311.91
1
6323.48
1
6286.94
1
6332.76
1
6281.78
1
6262.05
1
6353.27
1
6399.16
1
6430.13
1
6488.69
1
6562.74
1
6718.8
1
6835.04
1
6909.32
1
7083.59
1
7219.26
1
7433.08
1
7656.56
1
7817.59
1
8005.22
1
8186.25
1
8396.19
1
8569.5
1
8764.13
1
8963.79
1
9067.84
1
9185.75
1
9344.87
1
9378.33
1
9373.15
1
9402.9
1
9316.69
1
9214.51
1
9165.07
1
9133.21
1
9101.02
1
9106.64
1
9161.45
1
9201.65
1
9367.23
1
9555.46
1
9779.3
1
10026.7
1
10388
1
10821.8
1
11195.3
1
11634.6
1
11924.4
1
12085.8
1
11908
1
11483.2
1
10774
1
9858.13
1
8784.28
1
7741.67
1
6788.31
1
6038.31
1
5443.7
1
5031.78
1
4706.17
1
4422.91
1
4239.59
1
4067.76
1
3973.73
1
3918.02
1
3823.29
1
3743.67
1
3700.26
1
3646.11
1
3624
1
3594.98
1
3583.18
1
3574.2
1
3549.34
1
3506.26
1
3476.88
1
3457.86
1
3466.86
1
3464.39
1
3452.03
1
3426.78
1
3451.6
1
3443.72
1
3410.76
1
3418.11
1
3407.97
1
3404.37
1
3443.6
1
3430.9
1
3409.56
1
3405.78
1
3358.1
1
3387.29
1
3361.71
1
3373.91
1
3369.59
1
3343.36
1
3356.37
1
3353.38
1
3371.93
1
3369.76
1
3352.66
1
3365.3
1
3349.52
1
3315
1
3320.93
1
3332.88
1
3344.66
1
3343.83
1
3368.99
1
3322.01
1
3327.87
1
3329.08
1
3333.07
1
3314.84
1
3319.48
1
3348.68
1
3342.65
1
3335.36
1
3335.73
1
3325.45
1
3334.97
1
3337.72
1
3322.92
1
3322
1
3339.08
1
3333.72
1
3320.4
1
3329.95
1
3318.59
1
3308.25
1
3337.63
1
3312.4
1
3312.73
1
3346.89
1
3353.7
1
3339.35
1
3321.95
1
3322.12
1
3334.9
1
3333.22
1
3308.42
1
3318.55
1
3320.12
1
3322.55
1
3337.65
1
3301.81
1
3328.31
1
3331.75
1
3327.8
1
3333.99
1
3310.91
1
3298.38
1
3327.25
1
3306.58
1
3329.73
1
3317.17
1
3329.46
1
3366.01
1
3327.92
1
3319.81
1
3330.82
1
3311.83
1
3327.07
1
3324.16
1
3306.88
1
3300.95
1
3288.7
1
3304.94
1
3319.94
1
3348.09
1
3348.03
1
3326.59
1
3334.39
1
3337.95
1
3323.56
1
3348.58
1
3339.43
1
3345.49
1
3341.26
1
3346.39
1
3344.39
1
3314.26
1
3373.9
1
3358.16
1
3334.45
1
3362.27
1
end of experiment
